# Data from Run 10 and 6 from day 2018-08-09. Two scans merged
# Firsts column is AOTF freq in MHz 
# Second Column is measured wavelength in nm 
68.00000 828.64776
68.50000 822.93068
69.00000 817.49262
69.50000 812.33497
70.00000 807.29250
70.50000 802.29525
71.00000 797.38853
71.50000 792.53168
72.00000 787.75405
72.50000 782.98640
73.00000 778.15431
73.50000 773.35919
74.00000 768.80807
74.50000 764.41485
75.00000 760.02580
75.50000 755.72387
76.00000 751.44903
76.50000 747.18398
77.00000 742.87322
77.50000 738.65639
78.00000 734.58467
78.50000 730.61066
79.00000 726.69911
79.50000 722.83593
80.00000 718.97133
80.50000 715.06892
81.00000 711.23966
81.50000 707.53653
82.00000 703.98974
82.00000 703.83380
82.50000 700.22146
83.00000 696.67538
83.50000 693.14448
84.00000 689.64329
84.50000 686.19885
85.00000 682.81782
85.50000 679.48558
86.00000 676.14862
86.50000 672.87844
87.00000 669.64995
87.50000 666.48365
88.00000 663.33717
88.50000 660.25556
89.00000 657.22803
89.50000 654.27269
90.00000 651.38203
90.50000 648.65005
91.00000 645.99655
91.50000 643.45509
92.00000 640.21007
92.50000 636.57906
93.00000 633.70250
93.50000 630.94442
94.00000 628.22128
94.50000 625.51612
95.00000 622.84017
95.50000 620.16749
96.00000 617.55599
96.50000 614.98542
97.00000 612.45394
97.50000 609.92138
98.00000 607.39635
98.50000 604.92830
99.00000 602.48751
99.50000 600.09406
100.00000 597.69560
100.50000 595.31925
101.00000 592.96958
101.50000 590.64986
102.00000 588.37888
102.50000 586.10476
103.00000 583.86408
103.50000 581.64270
104.00000 579.44461
104.50000 577.28395
105.00000 575.12369
105.50000 573.00227
106.00000 570.90454
106.50000 568.81005
107.00000 566.74833
107.50000 564.70914
108.00000 562.70064
108.50000 560.68495
109.00000 558.68571
109.50000 556.74087
110.00000 554.82690
110.50000 552.83435
111.00000 550.96869
111.50000 549.09411
112.00000 547.24430
112.50000 545.44083
113.00000 543.54188
113.50000 541.77045
114.00000 539.87406
114.50000 538.19596
115.00000 536.42578
115.50000 534.67230
116.00000 532.95702
116.50000 531.26294
117.00000 529.56716
117.50000 527.88304
118.00000 526.20651
118.50000 524.58284
119.00000 522.97041
119.50000 521.33102
120.00000 519.73228
120.50000 518.15189
121.00000 516.60362
121.50000 515.02245
122.00000 513.46247
122.50000 511.96497
123.00000 510.46831
123.50000 508.94996
124.00000 507.51322
124.50000 505.99343
125.00000 504.56343
125.50000 503.08327
126.00000 501.63459
126.50000 500.24822
127.00000 498.83970
127.50000 497.43108
128.00000 496.03429
128.50000 494.70090
129.00000 493.33026
129.50000 491.95596
130.00000 490.64008
130.50000 489.34315
131.00000 487.99728
131.50000 486.68724
132.00000 485.43564
132.50000 484.16165
133.00000 482.85025
133.50000 481.61265
134.00000 480.39916
134.50000 479.14825
135.00000 477.90500
135.50000 476.71337
136.00000 475.51176
136.50000 474.29958
137.00000 473.15396
137.50000 471.97189
138.00000 470.77753
138.50000 469.61518
139.00000 468.54929
139.50000 467.38747
140.00000 466.00385
